Wavelength,Reflectance
400,0.22202
401,0.222189
402,0.222358
403,0.222527
404,0.222696
405,0.222865
406,0.223832
407,0.224799
408,0.225766
409,0.226733
410,0.2277
411,0.228578
412,0.229456
413,0.230334
414,0.231212
415,0.23209
416,0.232597
417,0.233104
418,0.233611
419,0.234118
420,0.234625
421,0.23551
422,0.236395
423,0.23728
424,0.238165
425,0.23905
426,0.23984
427,0.24063
428,0.24142
429,0.24221
430,0.243
431,0.243869
432,0.244738
433,0.245607
434,0.246476
435,0.247345
436,0.248316
437,0.249287
438,0.250258
439,0.251229
440,0.2522
441,0.253158
442,0.254116
443,0.255074
444,0.256032
445,0.25699
446,0.258056
447,0.259122
448,0.260188
449,0.261254
450,0.26232
451,0.263471
452,0.264622
453,0.265773
454,0.266924
455,0.268075
456,0.268916
457,0.269757
458,0.270598
459,0.271439
460,0.27228
461,0.273211
462,0.274142
463,0.275073
464,0.276004
465,0.276935
466,0.277718
467,0.278501
468,0.279284
469,0.280067
470,0.28085
471,0.281889
472,0.282928
473,0.283967
474,0.285006
475,0.286045
476,0.286946
477,0.287847
478,0.288748
479,0.289649
480,0.29055
481,0.291249
482,0.291948
483,0.292647
484,0.293346
485,0.294045
486,0.294807
487,0.295569
488,0.296331
489,0.297093
490,0.297855
491,0.298793
492,0.299731
493,0.300669
494,0.301607
495,0.302545
496,0.303446
497,0.304347
498,0.305248
499,0.306149
500,0.30705
501,0.30816
502,0.30927
503,0.31038
504,0.31149
505,0.3126
506,0.3138
507,0.315
508,0.3162
509,0.3174
510,0.3186
511,0.319813
512,0.321026
513,0.322239
514,0.323452
515,0.324665
516,0.325938
517,0.327211
518,0.328484
519,0.329757
520,0.33103
521,0.33241
522,0.33379
523,0.33517
524,0.33655
525,0.33793
526,0.339149
527,0.340368
528,0.341587
529,0.342806
530,0.344025
531,0.345459
532,0.346893
533,0.348327
534,0.349761
535,0.351195
536,0.352528
537,0.353861
538,0.355194
539,0.356527
540,0.35786
541,0.35927
542,0.36068
543,0.36209
544,0.3635
545,0.36491
546,0.366373
547,0.367836
548,0.369299
549,0.370762
550,0.372225
551,0.373727
552,0.375229
553,0.376731
554,0.378233
555,0.379735
556,0.381349
557,0.382963
558,0.384577
559,0.386191
560,0.387805
561,0.389103
562,0.390401
563,0.391699
564,0.392997
565,0.394295
566,0.395421
567,0.396547
568,0.397673
569,0.398799
570,0.399925
571,0.401121
572,0.402317
573,0.403513
574,0.404709
575,0.405905
576,0.406903
577,0.407901
578,0.408899
579,0.409897
580,0.410895
581,0.411998
582,0.413101
583,0.414204
584,0.415307
585,0.41641
586,0.417574
587,0.418738
588,0.419902
589,0.421066
590,0.42223
591,0.423286
592,0.424342
593,0.425398
594,0.426454
595,0.42751
596,0.428378
597,0.429246
598,0.430114
599,0.430982
600,0.43185
601,0.432381
602,0.432912
603,0.433443
604,0.433974
605,0.434505
606,0.434905
607,0.435305
608,0.435705
609,0.436105
610,0.436505
611,0.436509
612,0.436513
613,0.436517
614,0.436521
615,0.436525
616,0.436574
617,0.436623
618,0.436672
619,0.436721
620,0.43677
621,0.437115
622,0.43746
623,0.437805
624,0.43815
625,0.438495
626,0.438627
627,0.438759
628,0.438891
629,0.439023
630,0.439155
631,0.439489
632,0.439823
633,0.440157
634,0.440491
635,0.440825
636,0.441198
637,0.441571
638,0.441944
639,0.442317
640,0.44269
641,0.443253
642,0.443816
643,0.444379
644,0.444942
645,0.445505
646,0.445718
647,0.445931
648,0.446144
649,0.446357
650,0.44657
651,0.445886
652,0.445202
653,0.444518
654,0.443834
655,0.44315
656,0.441505
657,0.43986
658,0.438215
659,0.43657
660,0.434925
661,0.432983
662,0.431041
663,0.429099
664,0.427157
665,0.425215
666,0.424021
667,0.422827
668,0.421633
669,0.420439
670,0.419245
671,0.418961
672,0.418677
673,0.418393
674,0.418109
675,0.417825
676,0.418814
677,0.419803
678,0.420792
679,0.421781
680,0.42277
681,0.425259
682,0.427748
683,0.430237
684,0.432726
685,0.435215
686,0.439346
687,0.443477
688,0.447608
689,0.451739
690,0.45587
691,0.460613
692,0.465356
693,0.470099
694,0.474842
695,0.479585
696,0.48358
697,0.487575
698,0.49157
699,0.495565
700,0.49956
701,0.502465
702,0.50537
703,0.508275
704,0.51118
705,0.514085
706,0.516307
707,0.518529
708,0.520751
709,0.522973
710,0.525195
711,0.526778
712,0.528361
713,0.529944
714,0.531527
715,0.53311
716,0.534134
717,0.535158
718,0.536182
719,0.537206
720,0.53823
721,0.539226
722,0.540222
723,0.541218
724,0.542214
725,0.54321
726,0.544017
727,0.544824
728,0.545631
729,0.546438
730,0.547245
731,0.547562
732,0.547879
733,0.548196
734,0.548513
735,0.54883
736,0.549288
737,0.549746
738,0.550204
739,0.550662
740,0.55112
741,0.551856
742,0.552592
743,0.553328
744,0.554064
745,0.5548
746,0.555049
747,0.555298
748,0.555547
749,0.555796
750,0.556045
751,0.556338
752,0.556631
753,0.556924
754,0.557217
755,0.55751
756,0.557944
757,0.558378
758,0.558812
759,0.559246
760,0.55968
761,0.560039
762,0.560398
763,0.560757
764,0.561116
765,0.561475
766,0.561848
767,0.562221
768,0.562594
769,0.562967
770,0.56334
771,0.56372
772,0.5641
773,0.56448
774,0.56486
775,0.56524
776,0.565722
777,0.566204
778,0.566686
779,0.567168
780,0.56765
781,0.568031
782,0.568412
783,0.568793
784,0.569174
785,0.569555
786,0.569932
787,0.570309
788,0.570686
789,0.571063
790,0.57144
791,0.571806
792,0.572172
793,0.572538
794,0.572904
795,0.57327
796,0.573616
797,0.573962
798,0.574308
799,0.574654
800,0.575